#"+/-ESI TIC Scan Frag=130.0V SD002Q_ZB_C18_Nic_P1_mix_T5_biol1_tech3_E6.d "
#Point,X(Minutes),Y(Counts)
0,0.046,886970.3125
1,0.057,911876.1875
2,0.069,933124.6875
3,0.080,905133.8125
4,0.091,914170.5
5,0.102,933151.5
6,0.114,926948.75
7,0.125,910450.1875
8,0.136,902304.8125
9,0.147,908780.5
10,0.158,914889.375
11,0.170,887168.1875
12,0.181,910221.25
13,0.192,924965.5625
14,0.203,916308.75
15,0.215,922172.125
16,0.226,916353.5625
17,0.237,915154.125
18,0.248,903170.75
19,0.259,916835.75
20,0.271,903522.3125
21,0.282,930506.875
22,0.293,918947.5
23,0.304,905701.875
24,0.316,930869.375
25,0.327,911821.25
26,0.338,924750.125
27,0.349,930199.6875
28,0.361,903357.4375
29,0.372,934058.75
30,0.383,927835.5
31,0.394,910288.25
32,0.405,914120.1875
33,0.417,915007.3125
34,0.428,901578.9375
35,0.439,927758.125
36,0.450,932838.625
37,0.462,924715.125
38,0.473,919066.5625
39,0.484,936513.9375
40,0.495,941689.6875
41,0.506,935960.875
42,0.518,922375.375
43,0.529,913186.4375
44,0.540,928141.125
45,0.551,936924.0625
46,0.563,913033.4375
47,0.574,922789.75
48,0.585,902707
49,0.596,941132.4375
50,0.607,945388.5625
51,0.619,937126.125
52,0.630,941387.6875
53,0.641,921961.0625
54,0.652,930928.9375
55,0.664,918483.5625
56,0.675,936621.25
57,0.686,919277.25
58,0.697,919883.125
59,0.708,920488.5625
60,0.720,921729.9375
61,0.731,927857.375
62,0.753,1054184
63,0.765,7345749
64,0.776,17116312
65,0.787,25284206
66,0.798,39186960
67,0.810,43189600
68,0.821,39097776
69,0.832,33295632
70,0.843,28383208
71,0.854,24995132
72,0.866,23640140
73,0.877,24131732
74,0.888,24701604
75,0.899,23244800
76,0.911,22515062
77,0.922,24071632
78,0.933,24190748
79,0.944,25146452
80,0.955,27192530
81,0.967,28473336
82,0.978,26272970
83,0.989,26454858
84,1.000,23811714
85,1.012,28013862
86,1.023,45672052
87,1.034,49530740
88,1.045,41959844
89,1.056,34534296
90,1.068,30915670
91,1.079,31117746
92,1.090,28887254
93,1.101,24999842
94,1.113,22132628
95,1.124,22046746
96,1.135,22117882
97,1.146,20008922
98,1.158,18987916
99,1.169,19181058
100,1.180,18314564
101,1.191,18343986
102,1.202,18578618
103,1.214,18357140
104,1.225,17475468
105,1.236,16612863
106,1.247,16803706
107,1.259,18637214
108,1.270,19706052
109,1.281,18411000
110,1.292,18180550
111,1.303,17579932
112,1.315,16914864
113,1.326,16303791
114,1.337,16974166
115,1.348,17969932
116,1.360,17930602
117,1.371,18709404
118,1.382,24403044
119,1.393,30176644
120,1.404,28519032
121,1.416,24784564
122,1.427,20817904
123,1.438,18979380
124,1.449,19087144
125,1.461,22733854
126,1.472,25474650
127,1.483,23637782
128,1.494,22291978
129,1.505,24750760
130,1.517,26872008
131,1.528,25024318
132,1.539,22469066
133,1.550,19638682
134,1.562,18190122
135,1.573,17221228
136,1.584,16504174
137,1.595,16386264
138,1.607,16431245
139,1.618,17203262
140,1.629,17352442
141,1.640,16982698
142,1.651,16649629
143,1.663,15072739
144,1.674,13820445
145,1.685,13329212
146,1.696,15099829
147,1.708,17694086
148,1.719,18739280
149,1.730,17678812
150,1.741,16580204
151,1.752,19542486
152,1.764,25516044
153,1.775,25992444
154,1.786,22734074
155,1.797,19375620
156,1.809,18137730
157,1.820,20295676
158,1.831,27155988
159,1.842,39696628
160,1.853,43096172
161,1.865,39425744
162,1.876,34969688
163,1.887,28474184
164,1.898,21755192
165,1.910,18099534
166,1.921,16335530
167,1.932,16233309
168,1.943,16401556
169,1.955,14815386
170,1.966,15861044
171,1.977,19899748
172,1.988,20625172
173,1.999,18744174
174,2.011,16564509
175,2.022,16515018
176,2.033,15650367
177,2.044,14116251
178,2.056,13251345
179,2.067,13638770
180,2.078,15221747
181,2.089,15794298
182,2.100,15284573
183,2.112,14511398
184,2.123,14092719
185,2.134,17313574
186,2.145,25383000
187,2.157,25783972
188,2.168,22117742
189,2.179,17907970
190,2.190,16619216
191,2.201,15047384
192,2.213,14333126
193,2.224,13832328
194,2.235,13584667
195,2.246,12960916
196,2.258,12088109
197,2.269,11772472
198,2.280,11192675
199,2.291,11289604
200,2.302,13280205
201,2.314,14916570
202,2.325,14598723
203,2.336,12139229
204,2.347,11006315
205,2.359,12991298
206,2.370,15239432
207,2.381,15557827
208,2.392,14854382
209,2.404,14710969
210,2.415,16744074
211,2.426,19587436
212,2.437,20023094
213,2.448,18881104
214,2.460,15941828
215,2.471,12926822
216,2.482,13624879
217,2.493,13300482
218,2.505,11672220
219,2.516,10069692
220,2.527,8952294
221,2.538,8598845
222,2.549,9419749
223,2.561,10355994
224,2.572,11146562
225,2.583,12298353
226,2.594,14890019
227,2.606,16393854
228,2.617,15331819
229,2.628,12522710
230,2.639,11768943
231,2.650,11644318
232,2.662,11428151
233,2.673,10776480
234,2.684,9638786
235,2.695,10521195
236,2.707,14438404
237,2.718,15356476
238,2.729,13164085
239,2.740,12237408
240,2.751,16432022
241,2.763,19766906
242,2.774,17858238
243,2.785,14126514
244,2.796,10946214
245,2.808,8294645.5
246,2.819,7279815.5
247,2.830,6547499.5
248,2.841,6551632
249,2.853,7443250.5
250,2.864,8048271
251,2.875,7411816
252,2.886,6715335
253,2.897,6591200
254,2.909,6700234
255,2.920,6308517
256,2.931,5756755.5
257,2.942,5607742.5
258,2.954,5602928.5
259,2.965,5385348
260,2.976,5420853.5
261,2.987,5578666.5
262,2.998,5816874.5
263,3.010,5716383.5
264,3.021,5260860
265,3.032,5006216.5
266,3.043,5060099.5
267,3.055,5300945
268,3.066,5650365
269,3.077,7087827.5
270,3.088,7804397.5
271,3.099,7817787
272,3.111,6846034
273,3.122,5831366
274,3.133,5462068
275,3.144,5843672.5
276,3.156,5629563.5
277,3.167,5104993.5
278,3.178,4740021
279,3.189,4570077
280,3.200,4555113
281,3.212,4749399.5
282,3.223,4917452.5
283,3.234,4847658
284,3.245,4840503.5
285,3.257,4879570.5
286,3.268,5064894
287,3.279,5760439.5
288,3.290,6652267.5
289,3.302,6532118
290,3.313,5982853
291,3.324,6472670.5
292,3.335,7152919.5
293,3.346,6878652
294,3.358,6357282
295,3.369,5899036.5
296,3.380,6023541.5
297,3.391,6852055.5
298,3.403,7730482.5
299,3.414,9562589
300,3.425,17599890
301,3.436,25095738
302,3.447,23006278
303,3.459,16114229
304,3.470,10280277
305,3.481,7649696
306,3.492,6013257
307,3.504,5350655.5
308,3.515,4716248.5
309,3.526,4326629
310,3.537,4232006.5
311,3.548,4084191.25
312,3.560,4086349.75
313,3.571,4022048.5
314,3.582,3874994.5
315,3.593,4166066.25
316,3.605,4691304.5
317,3.616,5099244.5
318,3.627,5372244.5
319,3.715,6764166
320,3.726,10368674
321,3.737,10213373
322,3.749,10621403
323,3.760,10491573
324,3.771,10490398
325,3.782,10394165
326,3.794,10856638
327,3.805,10728472
328,3.816,10800114
329,3.827,10880663
330,3.838,10807246
331,3.850,10918657
332,3.861,11115097
333,3.872,11086869
334,3.883,11082532
335,3.895,10962201
336,3.906,10920861
337,3.917,11111348
338,3.928,10910623
339,3.939,10993431
340,3.951,11329726
341,3.962,11270000
342,3.973,11025354
343,3.984,11326586
344,3.996,10988322
345,4.007,11262854
346,4.018,11208533
347,4.029,12116033
348,4.040,13481132
349,4.052,12852173
350,4.063,11915063
351,4.074,11236017
352,4.085,11048335
353,4.097,10805282
354,4.108,11050069
355,4.119,11027340
356,4.130,10825641
357,4.142,10603192
358,4.153,10704389
359,4.164,10739508
360,4.175,10608871
361,4.186,10586921
362,4.198,10521013
363,4.209,10773627
364,4.220,10512953
365,4.231,10316998
366,4.243,10569265
367,4.254,10562795
368,4.265,12520508
369,4.276,14942485
370,4.287,14165975
371,4.299,12582340
372,4.310,11698394
373,4.321,11480140
374,4.332,10781562
375,4.344,10362224
376,4.355,10461327
377,4.366,10429798
378,4.377,10401493
379,4.388,9981736
380,4.400,10174334
381,4.411,10252733
382,4.422,10264688
383,4.433,10119333
384,4.445,10010857
385,4.456,9968692
386,4.467,10067223
387,4.478,10218255
388,4.489,10037648
389,4.501,9767948
390,4.512,9747345
391,4.523,9977889
392,4.534,9973794
393,4.546,9882153
394,4.557,9675846
395,4.568,9673640
396,4.579,9529327
397,4.590,9546947
398,4.602,9486410
399,4.613,9689643
400,4.624,9292411
401,4.635,9417895
402,4.647,9436784
403,4.658,9195773
404,4.669,9077151
405,4.680,9328507
406,4.691,8791106
407,4.703,8993896
408,4.714,8910818
409,4.725,8758093
410,4.736,8652295
411,4.748,8399155
412,4.759,8515363
413,4.770,8460889
414,4.781,8320024
415,4.792,8330542
416,4.804,8213396
417,4.815,8002240
418,4.826,7990722.5
419,4.837,8098165.5
420,4.849,8023185
421,4.860,7982400.5
422,4.871,7810253
423,4.882,7712817
424,4.893,7678055.5
425,4.905,7687921.5
426,4.916,7530055
427,4.927,7597370.5
428,4.938,7704956.5
429,4.950,7435598.5
430,4.961,7467348.5
431,4.972,7435520
432,4.983,7433874
433,4.994,7372479.5
#"+/-ESI EIC(247.0638) Scan Frag=130.0V SD002Q_ZB_C18_Nic_P1_mix_T5_biol1_tech3_E6.d "
#Point,X(Minutes),Y(Counts)
0,0.046,0
1,0.057,0
2,0.069,0
3,0.080,0
4,0.091,0
5,0.102,0
6,0.114,0
7,0.125,0
8,0.136,0
9,0.147,0
10,0.158,0
11,0.170,0
12,0.181,0
13,0.192,0
14,0.203,0
15,0.215,0
16,0.226,0
17,0.237,0
18,0.248,0
19,0.259,0
20,0.271,0
21,0.282,0
22,0.293,0
23,0.304,0
24,0.316,0
25,0.327,0
26,0.338,0
27,0.349,0
28,0.361,0
29,0.372,0
30,0.383,0
31,0.394,0
32,0.405,0
33,0.417,0
34,0.428,0
35,0.439,0
36,0.450,0
37,0.462,0
38,0.473,0
39,0.484,0
40,0.495,0
41,0.506,0
42,0.518,0
43,0.529,0
44,0.540,0
45,0.551,0
46,0.563,0
47,0.574,0
48,0.585,0
49,0.596,0
50,0.607,0
51,0.619,0
52,0.630,0
53,0.641,0
54,0.652,0
55,0.664,0
56,0.675,0
57,0.686,0
58,0.697,0
59,0.708,0
60,0.720,0
61,0.731,0
62,0.753,0
63,0.765,0
64,0.776,0
65,0.787,0
66,0.798,0
67,0.810,0
68,0.821,0
69,0.832,0
70,0.843,0
71,0.854,0
72,0.866,0
73,0.877,0
74,0.888,0
75,0.899,0
76,0.911,0
77,0.922,0
78,0.933,3390.90576171875
79,0.944,8468.2734375
80,0.955,9249.935546875
81,0.967,5389.220703125
82,0.978,5931.97314453125
83,0.989,6389.41015625
84,1.000,0
85,1.012,3086.1240234375
86,1.023,0
87,1.034,0
88,1.045,0
89,1.056,0
90,1.068,0
91,1.079,0
92,1.090,0
93,1.101,0
94,1.113,0
95,1.124,0
96,1.135,0
97,1.146,0
98,1.158,719.426147460938
99,1.169,719.034301757813
100,1.180,0
101,1.191,0
102,1.202,0
103,1.214,0
104,1.225,0
105,1.236,0
106,1.247,0
107,1.259,0
108,1.270,0
109,1.281,5539.94287109375
110,1.292,2647.177734375
111,1.303,0
112,1.315,926.230712890625
113,1.326,0
114,1.337,0
115,1.348,0
116,1.360,0
117,1.371,0
118,1.382,0
119,1.393,0
120,1.404,0
121,1.416,0
122,1.427,0
123,1.438,0
124,1.449,0
125,1.461,0
126,1.472,0
127,1.483,0
128,1.494,0
129,1.505,0
130,1.517,0
131,1.528,0
132,1.539,0
133,1.550,0
134,1.562,0
135,1.573,0
136,1.584,0
137,1.595,0
138,1.607,0
139,1.618,0
140,1.629,0
141,1.640,0
142,1.651,0
143,1.663,0
144,1.674,0
145,1.685,892.039306640625
146,1.696,0
147,1.708,0
148,1.719,619.18798828125
149,1.730,532.377563476563
150,1.741,0
151,1.752,0
152,1.764,0
153,1.775,0
154,1.786,0
155,1.797,0
156,1.809,0
157,1.820,0
158,1.831,0
159,1.842,0
160,1.853,0
161,1.865,0
162,1.876,0
163,1.887,714.834838867188
164,1.898,0
165,1.910,0
166,1.921,0
167,1.932,0
168,1.943,0
169,1.955,0
170,1.966,0
171,1.977,0
172,1.988,0
173,1.999,0
174,2.011,0
175,2.022,0
176,2.033,0
177,2.044,533.505615234375
178,2.056,0
179,2.067,0
180,2.078,0
181,2.089,0
182,2.100,0
183,2.112,0
184,2.123,0
185,2.134,0
186,2.145,0
187,2.157,0
188,2.168,0
189,2.179,0
190,2.190,0
191,2.201,0
192,2.213,0
193,2.224,0
194,2.235,0
195,2.246,0
196,2.258,0
197,2.269,0
198,2.280,0
199,2.291,0
200,2.302,0
201,2.314,0
202,2.325,0
203,2.336,0
204,2.347,0
205,2.359,0
206,2.370,0
207,2.381,0
208,2.392,0
209,2.404,0
210,2.415,0
211,2.426,0
212,2.437,0
213,2.448,0
214,2.460,0
215,2.471,0
216,2.482,0
217,2.493,0
218,2.505,0
219,2.516,0
220,2.527,0
221,2.538,470.653839111328
222,2.549,0
223,2.561,0
224,2.572,0
225,2.583,0
226,2.594,1416.08020019531
227,2.606,873.681762695313
228,2.617,0
229,2.628,647.790100097656
230,2.639,0
231,2.650,343.137359619141
232,2.662,0
233,2.673,0
234,2.684,0
235,2.695,0
236,2.707,0
237,2.718,0
238,2.729,0
239,2.740,541.485046386719
240,2.751,714.16552734375
241,2.763,847.792419433594
242,2.774,0
243,2.785,0
244,2.796,0
245,2.808,0
246,2.819,0
247,2.830,0
248,2.841,0
249,2.853,0
250,2.864,0
251,2.875,0
252,2.886,0
253,2.897,0
254,2.909,0
255,2.920,0
256,2.931,0
257,2.942,0
258,2.954,0
259,2.965,0
260,2.976,0
261,2.987,0
262,2.998,0
263,3.010,0
264,3.021,0
265,3.032,0
266,3.043,0
267,3.055,0
268,3.066,0
269,3.077,0
270,3.088,0
271,3.099,0
272,3.111,908.599487304688
273,3.122,0
274,3.133,29851.615234375
275,3.144,73027.171875
276,3.156,64321.9609375
277,3.167,37622.375
278,3.178,19006.06640625
279,3.189,9360.7041015625
280,3.200,3690.14135742188
281,3.212,1486.03576660156
282,3.223,1538.25769042969
283,3.234,1053.85681152344
284,3.245,0
285,3.257,887.898010253906
286,3.268,0
287,3.279,599.720031738281
288,3.290,788.400268554688
289,3.302,0
290,3.313,637.100158691406
291,3.324,0
292,3.335,0
293,3.346,0
294,3.358,0
295,3.369,0
296,3.380,0
297,3.391,0
298,3.403,0
299,3.414,0
300,3.425,0
301,3.436,0
302,3.447,0
303,3.459,0
304,3.470,0
305,3.481,0
306,3.492,0
307,3.504,0
308,3.515,0
309,3.526,644.78369140625
310,3.537,0
311,3.548,0
312,3.560,0
313,3.571,0
314,3.582,0
315,3.593,0
316,3.605,0
317,3.616,0
318,3.627,0
319,3.715,0
320,3.726,0
321,3.737,0
322,3.749,0
323,3.760,0
324,3.771,0
325,3.782,0
326,3.794,0
327,3.805,0
328,3.816,0
329,3.827,0
330,3.838,0
331,3.850,0
332,3.861,0
333,3.872,0
334,3.883,0
335,3.895,0
336,3.906,0
337,3.917,0
338,3.928,0
339,3.939,0
340,3.951,0
341,3.962,0
342,3.973,0
343,3.984,0
344,3.996,0
345,4.007,0
346,4.018,0
347,4.029,0
348,4.040,0
349,4.052,0
350,4.063,0
351,4.074,0
352,4.085,0
353,4.097,0
354,4.108,0
355,4.119,0
356,4.130,0
357,4.142,0
358,4.153,0
359,4.164,0
360,4.175,0
361,4.186,0
362,4.198,0
363,4.209,0
364,4.220,0
365,4.231,0
366,4.243,0
367,4.254,0
368,4.265,0
369,4.276,0
370,4.287,0
371,4.299,0
372,4.310,0
373,4.321,0
374,4.332,0
375,4.344,0
376,4.355,0
377,4.366,0
378,4.377,0
379,4.388,0
380,4.400,0
381,4.411,0
382,4.422,0
383,4.433,0
384,4.445,0
385,4.456,0
386,4.467,0
387,4.478,0
388,4.489,0
389,4.501,0
390,4.512,0
391,4.523,0
392,4.534,0
393,4.546,0
394,4.557,0
395,4.568,0
396,4.579,0
397,4.590,0
398,4.602,6604.6376953125
399,4.613,0
400,4.624,0
401,4.635,0
402,4.647,0
403,4.658,0
404,4.669,0
405,4.680,0
406,4.691,0
407,4.703,0
408,4.714,0
409,4.725,0
410,4.736,0
411,4.748,0
412,4.759,0
413,4.770,0
414,4.781,0
415,4.792,0
416,4.804,0
417,4.815,0
418,4.826,0
419,4.837,0
420,4.849,0
421,4.860,0
422,4.871,0
423,4.882,0
424,4.893,0
425,4.905,0
426,4.916,0
427,4.927,0
428,4.938,0
429,4.950,0
430,4.961,0
431,4.972,0
432,4.983,0
433,4.994,1497.67932128906
#"+/-ESI EIC(297.0197) Scan Frag=130.0V SD002Q_ZB_C18_Nic_P1_mix_T5_biol1_tech3_E6.d "
#Point,X(Minutes),Y(Counts)
0,0.046,0
1,0.057,0
2,0.069,0
3,0.080,0
4,0.091,0
5,0.102,0
6,0.114,0
7,0.125,0
8,0.136,0
9,0.147,0
10,0.158,0
11,0.170,0
12,0.181,0
13,0.192,0
14,0.203,0
15,0.215,0
16,0.226,0
17,0.237,0
18,0.248,0
19,0.259,0
20,0.271,0
21,0.282,0
22,0.293,0
23,0.304,0
24,0.316,0
25,0.327,0
26,0.338,0
27,0.349,0
28,0.361,0
29,0.372,0
30,0.383,0
31,0.394,0
32,0.405,0
33,0.417,0
34,0.428,0
35,0.439,0
36,0.450,0
37,0.462,0
38,0.473,0
39,0.484,0
40,0.495,0
41,0.506,0
42,0.518,0
43,0.529,0
44,0.540,0
45,0.551,0
46,0.563,0
47,0.574,0
48,0.585,0
49,0.596,0
50,0.607,0
51,0.619,0
52,0.630,0
53,0.641,0
54,0.652,0
55,0.664,0
56,0.675,0
57,0.686,0
58,0.697,0
59,0.708,0
60,0.720,0
61,0.731,0
62,0.753,0
63,0.765,0
64,0.776,0
65,0.787,0
66,0.798,0
67,0.810,0
68,0.821,0
69,0.832,0
70,0.843,0
71,0.854,0
72,0.866,0
73,0.877,383.143920898438
74,0.888,0
75,0.899,0
76,0.911,0
77,0.922,0
78,0.933,0
79,0.944,0
80,0.955,0
81,0.967,0
82,0.978,0
83,0.989,0
84,1.000,0
85,1.012,0
86,1.023,0
87,1.034,0
88,1.045,0
89,1.056,0
90,1.068,0
91,1.079,0
92,1.090,0
93,1.101,0
94,1.113,0
95,1.124,0
96,1.135,0
97,1.146,0
98,1.158,0
99,1.169,0
100,1.180,0
101,1.191,0
102,1.202,0
103,1.214,0
104,1.225,0
105,1.236,0
106,1.247,0
107,1.259,0
108,1.270,0
109,1.281,0
110,1.292,0
111,1.303,0
112,1.315,0
113,1.326,0
114,1.337,0
115,1.348,0
116,1.360,0
117,1.371,0
118,1.382,0
119,1.393,0
120,1.404,0
121,1.416,0
122,1.427,0
123,1.438,0
124,1.449,0
125,1.461,0
126,1.472,0
127,1.483,0
128,1.494,373.580657958984
129,1.505,0
130,1.517,0
131,1.528,361.006011962891
132,1.539,0
133,1.550,0
134,1.562,0
135,1.573,0
136,1.584,0
137,1.595,0
138,1.607,0
139,1.618,0
140,1.629,0
141,1.640,0
142,1.651,0
143,1.663,0
144,1.674,0
145,1.685,0
146,1.696,0
147,1.708,0
148,1.719,0
149,1.730,0
150,1.741,0
151,1.752,0
152,1.764,0
153,1.775,0
154,1.786,0
155,1.797,0
156,1.809,0
157,1.820,0
158,1.831,0
159,1.842,589.437866210938
160,1.853,0
161,1.865,0
162,1.876,0
163,1.887,0
164,1.898,0
165,1.910,0
166,1.921,0
167,1.932,0
168,1.943,0
169,1.955,0
170,1.966,0
171,1.977,0
172,1.988,0
173,1.999,0
174,2.011,0
175,2.022,0
176,2.033,0
177,2.044,0
178,2.056,0
179,2.067,364.024200439453
180,2.078,0
181,2.089,372.28125
182,2.100,0
183,2.112,0
184,2.123,0
185,2.134,0
186,2.145,0
187,2.157,0
188,2.168,0
189,2.179,0
190,2.190,0
191,2.201,0
192,2.213,0
193,2.224,0
194,2.235,0
195,2.246,0
196,2.258,0
197,2.269,0
198,2.280,0
199,2.291,0
200,2.302,0
201,2.314,0
202,2.325,0
203,2.336,0
204,2.347,0
205,2.359,0
206,2.370,0
207,2.381,0
208,2.392,0
209,2.404,0
210,2.415,0
211,2.426,0
212,2.437,0
213,2.448,0
214,2.460,0
215,2.471,0
216,2.482,0
217,2.493,0
218,2.505,0
219,2.516,0
220,2.527,0
221,2.538,0
222,2.549,0
223,2.561,0
224,2.572,0
225,2.583,0
226,2.594,0
227,2.606,0
228,2.617,0
229,2.628,0
230,2.639,0
231,2.650,0
232,2.662,0
233,2.673,0
234,2.684,0
235,2.695,0
236,2.707,0
237,2.718,0
238,2.729,0
239,2.740,0
240,2.751,0
241,2.763,0
242,2.774,0
243,2.785,0
244,2.796,0
245,2.808,0
246,2.819,0
247,2.830,0
248,2.841,0
249,2.853,0
250,2.864,0
251,2.875,0
252,2.886,0
253,2.897,0
254,2.909,0
255,2.920,0
256,2.931,299.446716308594
257,2.942,0
258,2.954,0
259,2.965,0
260,2.976,0
261,2.987,0
262,2.998,0
263,3.010,0
264,3.021,0
265,3.032,5235.611328125
266,3.043,42665.51953125
267,3.055,77196.015625
268,3.066,63954.9375
269,3.077,35862.97265625
270,3.088,19427.931640625
271,3.099,9724.6494140625
272,3.111,5880.8583984375
273,3.122,3242.64331054688
274,3.133,2118.072265625
275,3.144,1790.37878417969
276,3.156,1580.31958007813
277,3.167,1127.18273925781
278,3.178,1063.00793457031
279,3.189,770.194030761719
280,3.200,962.682373046875
281,3.212,564.282348632813
282,3.223,794.335632324219
283,3.234,854.145385742188
284,3.245,783.996520996094
285,3.257,605.200317382813
286,3.268,783.238342285156
287,3.279,868.859985351563
288,3.290,601.830749511719
289,3.302,449.538452148438
290,3.313,0
291,3.324,594.816589355469
292,3.335,575.952758789063
293,3.346,0
294,3.358,0
295,3.369,320.892333984375
296,3.380,331.704162597656
297,3.391,0
298,3.403,327.049743652344
299,3.414,672.001342773438
300,3.425,0
301,3.436,0
302,3.447,0
303,3.459,0
304,3.470,656.295043945313
305,3.481,359.367614746094
306,3.492,0
307,3.504,621.069885253906
308,3.515,289.734741210938
309,3.526,0
310,3.537,330.820434570313
311,3.548,425.574249267578
312,3.560,0
313,3.571,523.064392089844
314,3.582,0
315,3.593,0
316,3.605,0
317,3.616,0
318,3.627,0
319,3.715,0
320,3.726,0
321,3.737,0
322,3.749,0
323,3.760,0
324,3.771,0
325,3.782,0
326,3.794,0
327,3.805,0
328,3.816,0
329,3.827,0
330,3.838,0
331,3.850,0
332,3.861,0
333,3.872,0
334,3.883,0
335,3.895,0
336,3.906,0
337,3.917,0
338,3.928,0
339,3.939,0
340,3.951,0
341,3.962,0
342,3.973,0
343,3.984,0
344,3.996,0
345,4.007,0
346,4.018,0
347,4.029,0
348,4.040,0
349,4.052,0
350,4.063,0
351,4.074,0
352,4.085,0
353,4.097,0
354,4.108,0
355,4.119,0
356,4.130,0
357,4.142,0
358,4.153,0
359,4.164,0
360,4.175,0
361,4.186,0
362,4.198,0
363,4.209,0
364,4.220,0
365,4.231,0
366,4.243,0
367,4.254,0
368,4.265,11227.5859375
369,4.276,17589.23046875
370,4.287,17075.138671875
371,4.299,0
372,4.310,7039.82421875
373,4.321,0
374,4.332,4404.21142578125
375,4.344,3413.2705078125
376,4.355,0
377,4.366,0
378,4.377,0
379,4.388,0
380,4.400,0
381,4.411,0
382,4.422,0
383,4.433,0
384,4.445,0
385,4.456,0
386,4.467,0
387,4.478,0
388,4.489,0
389,4.501,0
390,4.512,0
391,4.523,0
392,4.534,0
393,4.546,0
394,4.557,0
395,4.568,0
396,4.579,0
397,4.590,0
398,4.602,0
399,4.613,0
400,4.624,0
401,4.635,0
402,4.647,0
403,4.658,0
404,4.669,0
405,4.680,0
406,4.691,0
407,4.703,0
408,4.714,0
409,4.725,0
410,4.736,0
411,4.748,0
412,4.759,0
413,4.770,0
414,4.781,0
415,4.792,0
416,4.804,0
417,4.815,0
418,4.826,2155.44873046875
419,4.837,0
420,4.849,0
421,4.860,0
422,4.871,0
